frequency,raw
20,8.80
21,8.82
22,8.85
23,8.86
24,8.88
25,8.89
26,8.90
27,8.90
28,8.90
29,8.89
30,8.88
31,8.87
32,8.85
33,8.83
34,8.81
35,8.78
36,8.75
37,8.71
38,8.67
39,8.63
40,8.58
41,8.53
42,8.47
43,8.42
44,8.35
45,8.29
46,8.21
47,8.14
48,8.06
49,7.98
50,7.89
51,7.77
52,7.64
53,7.52
54,7.40
55,7.29
56,7.18
57,7.06
58,6.94
59,6.81
60,6.67
61,6.53
62,6.37
63,6.22
64,6.06
65,5.91
66,5.76
67,5.62
68,5.47
69,5.34
70,5.21
71,5.09
72,4.98
73,4.87
74,4.76
75,4.66
76,4.56
77,4.46
78,4.37
79,4.28
80,4.20
81,4.12
82,4.05
83,3.98
84,3.91
85,3.84
86,3.78
87,3.72
88,3.66
89,3.60
90,3.55
91,3.50
92,3.45
93,3.40
94,3.35
95,3.31
96,3.26
97,3.21
98,3.17
99,3.13
100,3.08
101,3.04
102,3.00
104,2.95
105,2.91
106,2.86
107,2.82
108,2.77
109,2.73
110,2.68
111,2.63
112,2.58
113,2.53
114,2.48
115,2.43
117,2.38
118,2.33
119,2.29
120,2.24
121,2.19
123,2.14
124,2.09
125,2.05
126,2.00
128,1.96
129,1.91
130,1.87
131,1.83
133,1.79
134,1.75
135,1.72
137,1.68
138,1.65
140,1.62
141,1.59
142,1.56
144,1.53
145,1.51
147,1.48
148,1.46
150,1.43
151,1.41
153,1.39
154,1.38
156,1.36
157,1.35
159,1.33
160,1.32
162,1.30
164,1.29
165,1.28
167,1.27
169,1.26
170,1.24
172,1.23
174,1.22
175,1.21
177,1.20
179,1.19
181,1.18
183,1.18
184,1.17
186,1.16
188,1.15
190,1.14
192,1.13
194,1.12
196,1.11
198,1.10
200,1.09
202,1.08
204,1.06
206,1.05
208,1.04
210,1.02
212,1.01
214,0.99
216,0.97
218,0.96
221,0.94
223,0.92
225,0.90
227,0.89
229,0.87
232,0.85
234,0.83
236,0.81
239,0.79
241,0.77
244,0.75
246,0.74
248,0.72
251,0.70
253,0.68
256,0.66
259,0.65
261,0.63
264,0.61
266,0.60
269,0.58
272,0.57
274,0.56
277,0.54
280,0.53
283,0.52
286,0.51
288,0.50
291,0.49
294,0.48
297,0.47
300,0.46
303,0.45
306,0.44
309,0.43
312,0.43
316,0.42
319,0.41
322,0.41
325,0.40
328,0.39
332,0.39
335,0.38
338,0.38
342,0.37
345,0.37
349,0.36
352,0.36
356,0.36
359,0.35
363,0.35
366,0.35
370,0.34
374,0.34
377,0.34
381,0.34
385,0.34
389,0.34
393,0.34
397,0.33
401,0.33
405,0.33
409,0.33
413,0.33
417,0.33
421,0.33
425,0.33
430,0.33
434,0.32
438,0.32
443,0.32
447,0.31
451,0.31
456,0.31
460,0.30
465,0.30
470,0.29
474,0.29
479,0.28
484,0.27
489,0.27
494,0.26
499,0.25
504,0.24
509,0.24
514,0.23
519,0.22
524,0.21
529,0.21
535,0.20
540,0.19
545,0.19
551,0.18
556,0.18
562,0.17
568,0.17
573,0.17
579,0.16
585,0.16
591,0.16
596,0.16
602,0.15
608,0.15
615,0.15
621,0.15
627,0.15
633,0.15
639,0.15
646,0.15
652,0.15
659,0.15
665,0.15
672,0.15
679,0.16
686,0.16
692,0.15
699,0.15
706,0.15
713,0.15
721,0.15
728,0.15
735,0.15
742,0.14
750,0.14
757,0.14
765,0.14
773,0.13
780,0.13
788,0.13
796,0.12
804,0.12
812,0.11
820,0.11
828,0.11
837,0.10
845,0.10
853,0.10
862,0.09
871,0.09
879,0.08
888,0.08
897,0.08
906,0.07
915,0.07
924,0.07
933,0.07
943,0.06
952,0.06
962,0.06
971,0.06
981,0.05
991,0.05
1001,0.05
1011,0.05
1021,0.04
1031,0.04
1041,0.04
1052,0.03
1062,0.03
1073,0.03
1084,0.02
1094,0.02
1105,0.02
1116,0.01
1128,0.01
1139,0.01
1150,0.01
1162,0.00
1173,-0.00
1185,-0.00
1197,-0.01
1209,-0.01
1221,-0.01
1233,-0.01
1246,-0.01
1258,-0.01
1271,-0.02
1283,-0.02
1296,-0.02
1309,-0.02
1322,-0.02
1335,-0.02
1349,-0.02
1362,-0.01
1376,-0.01
1390,-0.01
1404,-0.01
1418,-0.01
1432,-0.01
1446,-0.00
1461,-0.00
1475,0.00
1490,0.00
1505,0.01
1520,0.01
1535,0.01
1550,0.01
1566,0.02
1582,0.02
1597,0.02
1613,0.02
1629,0.03
1646,0.03
1662,0.03
1679,0.03
1696,0.03
1713,0.03
1730,0.03
1747,0.04
1764,0.04
1782,0.04
1800,0.04
1818,0.04
1836,0.04
1854,0.04
1873,0.04
1892,0.04
1911,0.04
1930,0.04
1949,0.04
1969,0.04
1988,0.04
2008,0.04
2028,0.04
2048,0.04
2069,0.04
2090,0.04
2111,0.03
2132,0.03
2153,0.03
2175,0.03
2196,0.03
2218,0.02
2240,0.02
2263,0.02
2285,0.02
2308,0.01
2331,0.01
2355,0.01
2378,0.00
2402,-0.00
2426,-0.00
2450,-0.01
2475,-0.01
2500,-0.02
2525,-0.02
2550,-0.03
2575,-0.03
2601,-0.04
2627,-0.04
2653,-0.05
2680,-0.05
2707,-0.06
2734,-0.07
2761,-0.07
2789,-0.08
2817,-0.09
2845,-0.10
2873,-0.11
2902,-0.12
2931,-0.13
2960,-0.14
2990,-0.16
3020,-0.17
3050,-0.18
3080,-0.19
3111,-0.21
3142,-0.22
3174,-0.24
3206,-0.25
3238,-0.27
3270,-0.28
3303,-0.30
3336,-0.31
3369,-0.33
3403,-0.34
3437,-0.36
3471,-0.38
3506,-0.39
3541,-0.41
3576,-0.43
3612,-0.44
3648,-0.46
3685,-0.47
3721,-0.49
3759,-0.51
3796,-0.52
3834,-0.54
3873,-0.56
3911,-0.58
3950,-0.59
3990,-0.61
4030,-0.63
4070,-0.65
4111,-0.66
4152,-0.68
4193,-0.70
4235,-0.72
4278,-0.74
4321,-0.76
4364,-0.77
4407,-0.79
4451,-0.81
4496,-0.83
4541,-0.84
4586,-0.86
4632,-0.88
4679,-0.90
4725,-0.91
4773,-0.93
4820,-0.94
4868,-0.96
4917,-0.97
4966,-0.99
5016,-1.00
5066,-1.02
5117,-1.03
5168,-1.04
5220,-1.06
5272,-1.07
5325,-1.08
5378,-1.10
5432,-1.11
5486,-1.13
5541,-1.14
5596,-1.15
5652,-1.17
5709,-1.18
5766,-1.20
5823,-1.21
5882,-1.23
5940,-1.24
6000,-1.26
6060,-1.28
6120,-1.29
6182,-1.31
6244,-1.33
6306,-1.34
6369,-1.36
6433,-1.38
6497,-1.40
6562,-1.42
6628,-1.43
6694,-1.45
6761,-1.47
6828,-1.49
6897,-1.51
6966,-1.53
7035,-1.55
7106,-1.56
7177,-1.58
7249,-1.60
7321,-1.62
7394,-1.64
7468,-1.66
7543,-1.68
7618,-1.70
7694,-1.72
7771,-1.73
7849,-1.75
7928,-1.77
8007,-1.79
8087,-1.82
8168,-1.84
8250,-1.86
8332,-1.88
8415,-1.90
8499,-1.92
8584,-1.95
8670,-1.97
8757,-1.99
8845,-2.01
8933,-2.03
9022,-2.05
9113,-2.07
9204,-2.09
9296,-2.11
9389,-2.13
9483,-2.15
9577,-2.16
9673,-2.18
9770,-2.20
9868,-2.21
9966,-2.23
10066,-2.25
10167,-2.26
10268,-2.28
10371,-2.30
10475,-2.31
10579,-2.33
10685,-2.35
10792,-2.37
10900,-2.39
11009,-2.42
11119,-2.45
11230,-2.48
11343,-2.52
11456,-2.55
11571,-2.58
11686,-2.62
11803,-2.65
11921,-2.69
12040,-2.73
12161,-2.76
12282,-2.80
12405,-2.84
12529,-2.88
12655,-2.92
12781,-2.95
12909,-2.99
13038,-3.03
13168,-3.08
13300,-3.12
13433,-3.16
13567,-3.20
13703,-3.24
13840,-3.29
13978,-3.33
14118,-3.38
14259,-3.42
14402,-3.47
14546,-3.51
14692,-3.56
14838,-3.61
14987,-3.65
15137,-3.70
15288,-3.75
15441,-3.80
15595,-3.85
15751,-3.90
15909,-3.95
16068,-4.00
16229,-4.05
16391,-4.10
16555,-4.15
16720,-4.21
16888,-4.26
17056,-4.31
17227,-4.37
17399,-4.42
17573,-4.48
17749,-4.54
17926,-4.59
18106,-4.65
18287,-4.71
18470,-4.76
18654,-4.82
18841,-4.88
19029,-4.94
19220,-5.00
19412,-5.06
19606,-5.12
19802,-5.19
20000,-5.25
